# vlsr  TA(K) (average of 2 beams) - 110433 MonR2
545.42 12.1256
544.889 12.16
544.357 12.2953
543.826 12.3809
543.295 12.332
542.763 11.9628
542.232 12.2318
541.701 12.0915
541.169 12.0457
540.638 11.9107
540.107 11.9034
539.575 12.2588
539.044 12.2373
538.513 12.1521
537.981 12.1032
537.45 12.0931
536.919 12.1096
536.387 11.9719
535.856 12.039
535.325 11.9924
534.793 12.0165
534.262 12.1606
533.731 12.1701
533.199 12.2771
532.668 12.2439
532.137 12.2218
531.605 12.1649
531.074 12.0486
530.543 11.9468
530.011 12.1059
529.48 12.3937
528.949 12.2093
528.417 12.1854
527.886 12.1175
527.354 12.1912
526.823 12.2978
526.292 12.1337
525.76 12.1557
525.229 12.2736
524.698 11.9897
524.166 12.0146
523.635 11.9109
523.104 12.2071
522.572 12.0706
522.041 12.3369
521.51 12.171
520.978 12.292
520.447 12.2621
519.916 11.9818
519.384 12.1457
518.853 12.2042
518.322 12.0786
517.79 12.197
517.259 12.2235
516.728 12.228
516.196 12.3055
515.665 12.2451
515.134 12.2079
514.602 12.1214
514.071 12.2392
513.54 12.1755
513.008 12.0763
512.477 12.0891
511.946 12.2262
511.414 12.1427
510.883 11.9809
510.352 12.1711
509.82 12.1234
509.289 12.0407
508.758 12.1316
508.226 11.8384
507.695 12.1918
507.164 11.9593
506.632 12.146
506.101 11.9775
505.57 12.1727
505.038 12.197
504.507 12.1442
503.976 12.2199
503.444 12.3343
502.913 12.0835
502.382 11.9861
501.85 12.1737
501.319 12.0322
500.788 12.0775
500.256 12.0652
499.725 12.2442
499.194 12.164
498.662 12.0085
498.131 12.0193
497.599 11.8902
497.068 11.9638
496.537 11.7776
496.005 12.0286
495.474 12.1392
494.943 12.167
494.411 12.0629
493.88 12.0409
493.349 12.0631
492.817 12.001
492.286 12.0928
491.755 12.0669
491.223 12.1426
490.692 12.0898
490.161 12.1615
489.629 12.2095
489.098 12.0794
488.567 12.2349
488.035 12.0488
487.504 12.1338
486.973 12.2635
486.441 12.1304
485.91 12.0338
485.379 12.0658
484.847 12.0005
484.316 11.8701
483.785 12.1575
483.253 12.0505
482.722 12.19
482.191 12.3687
481.659 12.1602
481.128 12.1494
480.597 12.0792
480.065 11.9609
479.534 12.1857
479.003 12.1305
478.471 12.2676
477.94 12.0307
477.409 12.029
476.877 12.0176
476.346 12.1146
475.815 12.0961
475.283 12.0525
474.752 11.9832
474.221 12.0722
473.689 12.0557
473.158 12.1536
472.627 12.1072
472.095 12.173
471.564 11.9136
471.033 11.9217
470.501 12.1318
469.97 12.2859
469.439 12.2411
468.907 12.1361
468.376 11.918
467.844 12.0737
467.313 12.1349
466.782 12.0629
466.25 12.214
465.719 12.136
465.188 12.1358
464.656 12.1237
464.125 12.1461
463.594 12.0301
463.062 11.9457
462.531 12.0034
462 12.0243
461.468 11.9696
460.937 12.2866
460.406 12.2827
459.874 12.0695
459.343 12.1306
458.812 12.2325
458.28 11.9936
457.749 12.079
457.218 11.9205
456.686 12.1516
456.155 12.0742
455.624 12.1966
455.092 12.1574
454.561 12.0271
454.03 12.1358
453.498 12.0811
452.967 12.1756
452.436 12.269
451.904 12.0945
451.373 12.1581
450.842 12.2367
450.31 11.9301
449.779 11.9084
449.248 11.9846
448.716 12.1415
448.185 12.0328
447.654 12.1616
447.122 12.0836
446.591 11.8742
446.06 12.3169
445.528 12.1632
444.997 12.2816
444.466 12.1595
443.934 12.1523
443.403 12.0049
442.872 12.098
442.34 11.9346
441.809 12.0356
441.278 11.8873
440.746 11.9744
440.215 12.2106
439.684 12.1369
439.152 12.0549
438.621 12.2778
438.089 12.2751
437.558 12.1046
437.027 12.0537
436.495 12.2203
435.964 12.4584
435.433 12.1908
434.901 12.1121
434.37 12.159
433.839 12.262
433.307 12.4512
432.776 12.0264
432.245 12.2132
431.713 12.2178
431.182 12.144
430.651 12.0728
430.119 11.8796
429.588 12.0075
429.057 11.9692
428.525 12.1297
427.994 12.1354
427.463 12.226
426.931 12.0172
426.4 12.0641
425.869 12.178
425.337 12.2532
424.806 12.3049
424.275 12.1123
423.743 11.9363
423.212 12.1238
422.681 12.2117
422.149 12.2645
421.618 12.3669
421.087 12.1011
420.555 12.1867
420.024 12.0566
419.493 12.1579
418.961 12.2606
418.43 12.2132
417.899 12.2417
417.367 12.2446
416.836 12.3065
416.305 12.2198
415.773 12.3868
415.242 12.0593
414.711 12.1718
414.179 12.1538
413.648 12.1974
413.117 12.1621
412.585 12.5336
412.054 12.1423
411.523 12.1979
410.991 11.9958
410.46 12.1702
409.929 12.002
409.397 12.1955
408.866 12.4636
408.334 12.1001
407.803 12.019
407.272 12.3677
406.74 12.2442
406.209 11.9916
405.678 12.1318
405.146 12.0778
404.615 12.2606
404.084 12.1949
403.552 12.3213
403.021 12.1174
402.49 12.1761
401.958 12.4001
401.427 12.1848
400.896 12.2725
400.364 12.048
399.833 12.4232
399.302 12.4208
398.77 12.318
398.239 12.3081
397.708 12.1039
397.176 12.3609
396.645 12.1077
396.114 12.3164
395.582 12.1946
395.051 12.081
394.52 12.2957
393.988 12.2562
393.457 12.238
392.926 12.355
392.394 12.4404
391.863 12.1739
391.332 12.2518
390.8 12.3609
390.269 12.4538
389.738 12.2012
389.206 12.3688
388.675 12.1018
388.144 12.3061
387.612 12.3345
387.081 12.3812
386.55 12.1513
386.018 12.0933
385.487 12.5277
384.956 12.3374
384.424 12.1208
383.893 12.3734
383.362 12.4202
382.83 12.2932
382.299 12.2634
381.768 12.1314
381.236 12.3346
380.705 12.4161
380.174 12.3074
379.642 12.433
379.111 12.31
378.579 12.6232
378.048 12.3302
377.517 12.0818
376.985 12.1905
376.454 12.4223
375.923 12.2852
375.391 12.4728
374.86 12.3019
374.329 12.0462
373.797 12.1965
373.266 12.4085
372.735 12.1786
372.203 12.4078
371.672 12.2313
371.141 12.3001
370.609 12.1826
370.078 12.3393
369.547 12.2461
369.015 12.4135
368.484 12.2027
367.953 12.4802
367.421 12.3804
366.89 12.3136
366.359 12.2334
365.827 12.4003
365.296 12.2299
364.765 12.3958
364.233 12.2971
363.702 12.3908
363.171 12.0976
362.639 12.3912
362.108 12.3916
361.577 12.5094
361.045 12.5153
360.514 12.3843
359.983 12.4737
359.451 12.287
358.92 12.237
358.389 12.4653
357.857 12.0385
357.326 12.2417
356.795 12.3944
356.263 12.2164
355.732 12.2731
355.201 12.346
354.669 12.5983
354.138 12.2567
353.607 12.3673
353.075 12.3572
352.544 12.253
352.013 12.4835
351.481 12.4879
350.95 12.5315
350.419 12.5756
349.887 12.3737
349.356 12.5337
348.824 12.4942
348.293 12.4052
347.762 12.4312
347.23 12.3683
346.699 12.4663
346.168 12.4669
345.636 12.6285
345.105 12.6206
344.574 12.5065
344.042 12.5623
343.511 12.6944
342.98 12.381
342.448 12.4328
341.917 12.395
341.386 12.4334
340.854 12.4897
340.323 12.4701
339.792 12.6798
339.26 12.6668
338.729 12.4776
338.198 12.6888
337.666 12.5937
337.135 12.5314
336.604 12.4233
336.072 12.6388
335.541 12.7238
335.01 12.4158
334.478 12.4402
333.947 12.6295
333.416 12.3601
332.884 12.668
332.353 12.4951
331.822 12.5763
331.29 12.4113
330.759 12.7154
330.228 12.5916
329.696 12.601
329.165 12.7158
328.634 12.6347
328.102 12.709
327.571 12.6306
327.04 12.3516
326.508 12.5739
325.977 12.5963
325.446 12.5375
324.914 12.83
324.383 12.7204
323.852 12.6913
323.32 12.6786
322.789 12.6693
322.258 12.7951
321.726 12.7449
321.195 12.2541
320.664 12.5864
320.132 12.6611
319.601 12.7956
319.069 12.5764
318.538 12.7764
318.007 12.8464
317.475 12.594
316.944 12.8142
316.413 12.7032
315.881 12.7082
315.35 12.6688
314.819 12.3512
314.287 12.6678
313.756 12.6371
313.225 12.7418
312.693 12.6164
312.162 12.5746
311.631 12.7601
311.099 12.8029
310.568 12.6754
310.037 12.8325
309.505 12.5418
308.974 12.6384
308.443 12.9615
307.911 12.8291
307.38 12.6911
306.849 12.4492
306.317 12.8426
305.786 12.552
305.255 12.7499
304.723 12.7033
304.192 12.9826
303.661 12.7817
303.129 12.76
302.598 12.6972
302.067 12.7225
301.535 12.8121
301.004 12.8262
300.473 12.6494
299.941 12.6612
299.41 12.6963
298.879 12.7363
298.347 12.841
297.816 12.8289
297.285 12.7936
296.753 12.7095
296.222 12.847
295.691 12.8484
295.159 12.6886
294.628 12.8075
294.097 12.8954
293.565 12.7573
293.034 12.7846
292.503 12.8164
291.971 12.6575
291.44 12.7398
290.909 12.7442
290.377 12.8063
289.846 12.7237
289.314 12.6657
288.783 12.8623
288.252 13.0219
287.72 12.9601
287.189 12.8624
286.658 12.7096
286.126 12.8865
285.595 12.9423
285.064 12.9282
284.532 12.8582
284.001 12.8031
283.47 12.9412
282.938 12.8836
282.407 12.6685
281.876 13.0936
281.344 12.8509
280.813 12.8828
280.282 12.8326
279.75 12.8741
279.219 12.8965
278.688 12.6518
278.156 12.8557
277.625 12.839
277.094 12.7554
276.562 13.0127
276.031 12.9422
275.5 12.9017
274.968 13.1304
274.437 12.8189
273.906 13.0949
273.374 12.7657
272.843 12.794
272.312 12.5821
271.78 12.988
271.249 12.7313
270.718 12.9742
270.186 12.8662
269.655 12.8251
269.124 12.7864
268.592 13.0414
268.061 13.0749
267.53 12.9407
266.998 12.8668
266.467 12.9026
265.936 12.9757
265.404 12.9064
264.873 12.7303
264.342 12.8377
263.81 12.9068
263.279 12.8497
262.748 12.8653
262.216 12.8424
261.685 13.0497
261.154 13.2285
260.622 12.9524
260.091 12.9297
259.559 13.0439
259.028 13.119
258.497 13.0438
257.965 12.8418
257.434 12.9904
256.903 13.0013
256.371 12.9712
255.84 13.1647
255.309 13.0899
254.777 12.9325
254.246 12.9718
253.715 12.9753
253.183 13.0723
252.652 13.1909
252.121 12.934
251.589 12.8445
251.058 13.0248
250.527 12.8417
249.995 12.9196
249.464 12.9385
248.933 13.0145
248.401 12.9883
247.87 12.9685
247.339 13.1991
246.807 13.0365
246.276 13.004
245.745 13.0081
245.213 12.9328
244.682 13.0156
244.151 12.8098
243.619 12.9454
243.088 13.0521
242.557 12.9886
242.025 12.772
241.494 12.9283
240.963 12.8711
240.431 12.8716
239.9 12.6244
239.369 13.1154
238.837 13.2157
238.306 12.8636
237.775 12.7309
237.243 13.0078
236.712 12.8189
236.181 12.9518
235.649 12.8797
235.118 12.6767
234.587 12.8869
234.055 12.7488
233.524 12.8862
232.993 12.8557
232.461 12.6464
231.93 13.0823
231.399 13.2114
230.867 13.0408
230.336 12.7856
229.804 12.8527
229.273 13.1037
228.742 12.9759
228.21 13.0469
227.679 12.884
227.148 12.9471
226.616 13.0768
226.085 12.8109
225.554 12.9791
225.022 12.9394
224.491 12.947
223.96 12.9148
223.428 12.7933
222.897 12.9487
222.366 12.9202
221.834 12.7387
221.303 12.8232
220.772 12.7252
220.24 12.9193
219.709 12.8547
219.178 12.7575
218.646 12.7296
218.115 12.6544
217.584 12.8881
217.052 12.8608
216.521 12.9384
215.99 12.7333
215.458 12.986
214.927 12.7484
214.396 13.003
213.864 13.049
213.333 12.9698
212.802 13.0125
212.27 12.9524
211.739 12.9628
211.208 12.9945
210.676 12.7257
210.145 12.7592
209.614 12.7969
209.082 12.9553
208.551 12.7384
208.02 12.8112
207.488 12.7938
206.957 12.4838
206.426 12.8312
205.894 12.8996
205.363 12.6218
204.832 12.9963
204.3 12.8526
203.769 12.8228
203.238 12.5605
202.706 12.7862
202.175 12.687
201.644 12.7092
201.112 12.997
200.581 12.7782
200.05 12.5968
199.518 12.7487
198.987 12.5414
198.455 12.5879
197.924 12.6983
197.393 12.6294
196.861 12.7786
196.33 12.605
195.799 12.6072
195.267 12.8575
194.736 12.8932
194.205 13.0077
193.673 12.5254
193.142 12.8678
192.611 12.7605
192.079 12.652
191.548 12.4458
191.017 12.5732
190.485 12.6366
189.954 12.5728
189.423 12.4948
188.891 12.6732
188.36 12.6122
187.829 12.4341
187.297 12.6449
186.766 12.753
186.235 12.6469
185.703 12.648
185.172 12.5806
184.641 12.567
184.109 12.5826
183.578 12.4235
183.047 12.6039
182.515 12.7182
181.984 12.6796
181.453 12.718
180.921 12.489
180.39 12.598
179.859 12.6033
179.327 12.7095
178.796 12.6089
178.265 12.3301
177.733 12.5323
177.202 12.6794
176.671 12.6545
176.139 12.4461
175.608 12.5539
175.077 12.6104
174.545 12.5088
174.014 12.6408
173.483 12.5943
172.951 12.5099
172.42 12.7225
171.889 12.5713
171.357 12.3862
170.826 12.63
170.295 12.4889
169.763 12.6742
169.232 12.5404
168.7 12.5116
168.169 12.576
167.638 12.4453
167.106 12.7237
166.575 12.6448
166.044 12.3004
165.512 12.4059
164.981 12.444
164.45 12.7105
163.918 12.3046
163.387 12.5396
162.856 12.5466
162.324 12.3986
161.793 12.6184
161.262 12.5404
160.73 12.4783
160.199 12.2476
159.668 12.6243
159.136 12.5486
158.605 12.341
158.074 12.3738
157.542 12.3576
157.011 12.1599
156.48 12.5635
155.948 12.4382
155.417 12.2442
154.886 12.2358
154.354 12.3636
153.823 12.3693
153.292 12.4639
152.76 12.4004
152.229 12.6265
151.698 12.479
151.166 12.665
150.635 12.2369
150.104 12.2925
149.572 12.5251
149.041 12.2504
148.51 12.4173
147.978 12.4447
147.447 12.3289
146.916 12.3701
146.384 12.4571
145.853 12.2127
145.322 12.3442
144.79 12.3331
144.259 12.3457
143.728 12.2666
143.196 12.297
142.665 12.2186
142.134 12.3321
141.602 12.3555
141.071 12.4769
140.54 12.1391
140.008 12.5127
139.477 12.3123
138.945 12.3074
138.414 12.1261
137.883 12.3438
137.351 12.204
136.82 12.2626
136.289 12.3333
135.757 12.3565
135.226 12.5134
134.695 12.3526
134.163 12.3602
133.632 12.2427
133.101 12.2733
132.569 12.1933
132.038 12.6557
131.507 12.5659
130.975 12.1392
130.444 12.5907
129.913 12.4231
129.381 12.2632
128.85 12.4042
128.319 12.4365
127.787 12.4721
127.256 12.2696
126.725 12.3401
126.193 12.4659
125.662 12.2532
125.131 12.0385
124.599 12.2568
124.068 12.4709
123.537 11.9682
123.005 12.3853
122.474 12.346
121.943 12.1337
121.411 12.3818
120.88 12.3869
120.349 12.3759
119.817 12.391
119.286 12.4407
118.755 12.4842
118.223 12.372
117.692 12.2888
117.161 12.2933
116.629 12.2623
116.098 12.3313
115.567 12.2477
115.035 12.0859
114.504 12.3727
113.973 12.4196
113.441 12.4262
112.91 12.4266
112.379 12.3232
111.847 12.3508
111.316 12.4266
110.785 12.7128
110.253 12.3222
109.722 12.3242
109.19 12.5648
108.659 12.3733
108.128 12.3505
107.596 12.3012
107.065 12.3185
106.534 12.1805
106.002 12.4125
105.471 12.4579
104.94 12.3428
104.408 12.2828
103.877 12.4687
103.346 12.251
102.814 12.387
102.283 12.3831
101.752 12.4494
101.22 12.2616
100.689 12.2068
100.158 12.1618
99.6264 12.5018
99.095 12.3627
98.5637 12.2599
98.0324 12.3497
97.501 12.1769
96.9697 12.1718
96.4383 12.5337
95.907 12.5217
95.3757 12.3743
94.8443 12.4306
94.313 12.3429
93.7816 12.5725
93.2503 12.2767
92.719 12.5695
92.1876 12.3606
91.6563 12.4097
91.125 12.4943
90.5936 12.3588
90.0623 12.2152
89.5309 12.2591
88.9996 12.3168
88.4683 12.2234
87.9369 12.597
87.4056 12.1414
86.8742 12.3263
86.3429 12.4156
85.8116 12.21
85.2802 12.3219
84.7489 12.4996
84.2175 12.15
83.6862 12.2598
83.1549 12.3873
82.6235 12.3513
82.0922 12.4762
81.5608 12.4252
81.0295 12.5964
80.4982 12.3683
79.9668 12.427
79.4355 12.4692
78.9041 12.3111
78.3728 12.3955
77.8415 12.5029
77.3101 12.5252
76.7788 12.3842
76.2475 12.3888
75.7161 12.5611
75.1848 12.5204
74.6534 12.3433
74.1221 12.5179
73.5908 12.5307
73.0594 12.5499
72.5281 12.3911
71.9967 12.3534
71.4654 12.2656
70.9341 12.2551
70.4027 12.6078
69.8714 12.5482
69.34 12.4494
68.8087 12.4472
68.2774 12.5547
67.746 12.3837
67.2147 12.392
66.6833 12.4337
66.152 12.4924
65.6207 12.6829
65.0893 12.4892
64.558 12.6784
64.0267 12.7486
63.4953 12.4766
62.964 12.4141
62.4326 12.4897
61.9013 12.3841
61.37 12.2437
60.8386 12.6339
60.3073 12.4782
59.7759 12.5207
59.2446 12.3042
58.7133 12.4327
58.1819 12.5215
57.6506 12.331
57.1192 12.7114
56.5879 12.388
56.0566 12.5406
55.5252 12.5283
54.9939 12.4673
54.4625 12.8126
53.9312 12.7566
53.3999 12.5074
52.8685 12.7029
52.3372 12.6428
51.8058 12.5249
51.2745 12.2095
50.7432 12.3489
50.2118 12.7425
49.6805 12.5294
49.1492 12.9005
48.6178 12.5086
48.0865 12.5584
47.5551 12.5419
47.0238 12.6112
46.4925 12.7479
45.9611 12.8819
45.4298 12.7184
44.8984 12.4756
44.3671 12.4612
43.8358 12.8154
43.3044 12.4133
42.7731 12.5544
42.2417 12.6095
41.7104 12.6155
41.1791 12.6893
40.6477 12.4709
40.1164 12.4288
39.585 12.6159
39.0537 12.4178
38.5224 12.4466
37.991 12.5793
37.4597 12.5825
36.9283 12.8613
36.397 12.5869
35.8657 12.7772
35.3343 12.6532
34.803 12.6389
34.2717 12.8742
33.7403 12.6938
33.209 12.5995
32.6776 12.8587
32.1463 12.7866
31.615 12.5399
31.0836 12.6347
30.5523 12.6723
30.0209 12.3661
29.4896 12.4589
28.9583 12.8087
28.4269 12.8022
27.8956 12.753
27.3642 12.5572
26.8329 12.868
26.3016 12.8345
25.7702 12.7958
25.2389 12.6733
24.7075 12.6388
24.1762 12.6784
23.6449 12.6405
23.1135 12.8279
22.5822 12.7794
22.0508 12.7447
21.5195 12.793
20.9882 12.9605
20.4568 12.9522
19.9255 12.8494
19.3942 12.9021
18.8628 12.9593
18.3315 12.9009
17.8001 13.0145
17.2688 12.9491
16.7375 12.6294
16.2061 12.9757
15.6748 12.9484
15.1434 12.8809
14.6121 12.9807
14.0808 12.9322
13.5494 13.2625
13.0181 13.114
12.4867 13.5206
11.9554 13.8609
11.4241 13.8475
10.8927 14.2347
10.3614 14.9344
9.83005 15.5724
9.29871 15.1686
8.76737 14.8257
8.23603 14.4689
7.70469 14.0058
7.17335 13.6936
6.64201 13.5211
6.11067 13.3327
5.57933 13.1996
5.04799 13.111
4.51665 13.0095
3.98531 12.9186
3.45397 13.0617
2.92264 12.8295
2.3913 12.93
1.85996 12.8407
1.32862 12.6965
0.797279 12.7166
0.265939 12.7396
-0.2654 12.9153
-0.796739 12.8759
-1.32808 12.8998
-1.85942 12.9118
-2.39076 13.0246
-2.9221 12.91
-3.45344 12.902
-3.98477 12.7798
-4.51611 12.8236
-5.04745 12.8245
-5.57879 12.8914
-6.11013 12.8048
-6.64147 12.8953
-7.17281 12.7227
-7.70415 12.5956
-8.23549 12.9632
-8.76683 12.9243
-9.29817 12.7644
-9.82951 13.0598
-10.3608 12.7688
-10.8922 12.8888
-11.4235 12.8566
-11.9549 12.9961
-12.4862 13.0271
-13.0175 12.6372
-13.5489 12.805
-14.0802 13.1356
-14.6116 13.1598
-15.1429 13.0732
-15.6742 13.1404
-16.2056 13.1601
-16.7369 12.9358
-17.2683 12.9757
-17.7996 12.9077
-18.3309 13.0545
-18.8623 13.0724
-19.3936 13.1411
-19.925 12.8004
-20.4563 12.7403
-20.9876 12.9487
-21.519 12.8497
-22.0503 13.0112
-22.5816 12.9186
-23.113 12.841
-23.6443 12.9121
-24.1757 13.0633
-24.707 12.8955
-25.2383 12.8232
-25.7697 12.505
-26.301 12.9693
-26.8324 12.8529
-27.3637 12.7642
-27.895 12.6988
-28.4264 12.999
-28.9577 12.8543
-29.4891 12.9637
-30.0204 12.7172
-30.5517 12.7718
-31.0831 12.7588
-31.6144 12.7643
-32.1458 12.8593
-32.6771 12.809
-33.2084 12.8601
-33.7398 12.8388
-34.2711 12.8654
-34.8025 12.8484
-35.3338 12.8882
-35.8651 12.8496
-36.3965 12.9644
-36.9278 12.8842
-37.4591 12.7425
-37.9905 12.7539
-38.5218 12.9735
-39.0532 12.8617
-39.5845 12.8599
-40.1158 12.8285
-40.6472 12.892
-41.1785 12.971
-41.7099 12.7201
-42.2412 12.9357
-42.7725 13.1221
-43.3039 12.943
-43.8352 12.6512
-44.3666 12.9395
-44.8979 12.7831
-45.4292 12.8101
-45.9606 12.7139
-46.4919 12.9556
-47.0233 12.7318
-47.5546 12.8192
-48.0859 12.9201
-48.6173 12.7868
-49.1486 12.8482
-49.68 12.7753
-50.2113 12.7212
-50.7426 12.8666
-51.274 12.8005
-51.8053 12.7335
-52.3366 12.7189
-52.868 12.9391
-53.3993 12.8665
-53.9307 12.6824
-54.462 12.6693
-54.9933 12.876
-55.5247 13.0018
-56.056 12.8354
-56.5874 12.9795
-57.1187 12.9827
-57.65 12.7644
-58.1814 12.7692
-58.7127 12.8964
-59.2441 12.8151
-59.7754 12.6852
-60.3067 12.8881
-60.8381 12.6779
-61.3694 12.6547
-61.9008 12.8663
-62.4321 12.8557
-62.9634 12.7978
-63.4948 12.7827
-64.0261 12.8594
-64.5575 12.7426
-65.0888 12.6634
-65.6201 12.7778
-66.1515 12.7814
-66.6828 12.7149
-67.2141 12.7844
-67.7455 12.7247
-68.2768 12.8096
-68.8082 12.9486
-69.3395 12.4748
-69.8708 12.8635
-70.4022 12.8386
-70.9335 12.922
-71.4649 12.8334
-71.9962 12.7571
-72.5275 12.8065
-73.0589 12.8704
-73.5902 12.5528
-74.1216 12.6882
-74.6529 12.8093
-75.1842 12.698
-75.7156 12.872
-76.2469 12.8981
-76.7783 12.7698
-77.3096 12.8692
-77.8409 12.6551
-78.3723 12.8258
-78.9036 12.9201
-79.4349 12.7813
-79.9663 12.6591
-80.4976 12.8938
-81.029 12.9256
-81.5603 12.723
-82.0916 12.6908
-82.623 12.7876
-83.1543 12.8321
-83.6857 12.7214
-84.217 12.6934
-84.7483 12.5512
-85.2797 12.731
-85.811 12.9244
-86.3424 12.8229
-86.8737 12.6067
-87.405 12.6439
-87.9364 12.7638
-88.4677 12.7666
-88.9991 12.7813
-89.5304 13.1441
-90.0617 12.6007
-90.5931 12.8375
-91.1244 12.8252
-91.6558 12.7211
-92.1871 12.8553
-92.7184 12.7131
-93.2498 12.7613
-93.7811 12.7185
-94.3124 12.9918
-94.8438 12.7223
-95.3751 12.7043
-95.9065 12.7758
-96.4378 12.6371
-96.9691 12.5489
-97.5005 12.8769
-98.0318 12.7437
-98.5632 12.7887
-99.0945 12.6989
-99.6258 12.6544
-100.157 12.7986
-100.689 12.5356
-101.22 12.6348
-101.751 12.6148
-102.283 12.9182
-102.814 12.7356
-103.345 12.7557
-103.877 12.5296
-104.408 12.9416
-104.939 12.7509
-105.471 12.744
-106.002 12.7657
-106.533 12.6985
-107.065 12.7578
-107.596 12.8294
-108.127 12.6694
-108.659 12.6684
-109.19 12.7937
-109.721 12.7567
-110.253 12.4132
-110.784 13.0934
-111.315 12.709
-111.847 12.8969
-112.378 12.5192
-112.909 12.7906
-113.441 12.6608
-113.972 12.7632
-114.503 12.6974
-115.035 12.8074
-115.566 12.8527
-116.097 12.6932
-116.629 12.7471
-117.16 12.5915
-117.691 12.6575
-118.223 12.5916
-118.754 12.8041
-119.285 12.8281
-119.817 12.7917
-120.348 12.7532
-120.879 12.6757
-121.411 12.7892
-121.942 12.7456
-122.473 12.68
-123.005 12.6576
-123.536 12.6454
-124.067 12.5499
-124.599 12.5508
-125.13 12.7342
-125.661 12.6026
-126.193 12.6012
-126.724 12.7262
-127.255 12.5029
-127.787 12.6513
-128.318 12.4623
-128.85 12.6438
-129.381 12.727
-129.912 12.5553
-130.444 12.6876
-130.975 12.5631
-131.506 12.5111
-132.038 12.6085
-132.569 12.4588
-133.1 12.4914
-133.632 12.7748
-134.163 12.6148
-134.694 12.6741
-135.226 12.6367
-135.757 12.7788
-136.288 12.7269
-136.82 12.5483
-137.351 12.7469
-137.882 12.7418
-138.414 12.4364
-138.945 12.6878
-139.476 12.6424
-140.008 12.6408
-140.539 12.6785
-141.07 12.4798
-141.602 12.8418
-142.133 12.6141
-142.664 12.7593
-143.196 12.6329
-143.727 12.7264
-144.258 12.5016
-144.79 12.7815
-145.321 12.6112
-145.852 12.4984
-146.384 12.548
-146.915 12.5372
-147.446 12.5624
-147.978 12.651
-148.509 12.6837
-149.04 12.5455
-149.572 12.5535
-150.103 12.5813
-150.634 12.409
-151.166 12.7627
-151.697 12.7782
-152.228 12.9361
-152.76 12.9177
-153.291 12.2559
-153.822 12.6955
-154.354 12.5957
-154.885 12.7191
-155.416 12.5118
-155.948 12.8467
-156.479 12.5032
-157.01 12.5439
-157.542 12.5602
-158.073 12.4358
-158.604 12.5458
-159.136 12.6425
-159.667 12.5828
-160.199 12.5698
-160.73 12.5389
-161.261 12.5163
-161.793 12.5936
-162.324 12.516
-162.855 12.5644
-163.387 12.7114
-163.918 12.5974
-164.449 12.4833
-164.981 12.4652
-165.512 12.4467
-166.043 12.723
-166.575 12.5469
-167.106 12.7613
-167.637 12.7702
-168.169 12.553
-168.7 12.5778
-169.231 12.54
-169.763 12.8297
-170.294 12.5869
-170.825 12.3225
-171.357 12.675
-171.888 12.6566
-172.419 12.3266
-172.951 12.8563
-173.482 12.5163
-174.013 12.612
-174.545 12.6999
-175.076 12.6223
-175.607 12.5173
-176.139 12.615
-176.67 12.466
-177.201 12.5876
-177.733 12.558
-178.264 12.49
-178.795 12.3686
-179.327 12.4426
-179.858 12.6369
-180.389 12.799
-180.921 12.395
-181.452 12.3983
-181.983 12.6062
-182.515 12.5291
-183.046 12.5293
-183.577 12.6216
-184.109 12.7249
-184.64 12.7318
-185.171 12.4581
-185.703 12.4654
-186.234 12.8096
-186.765 12.6392
-187.297 12.7685
-187.828 12.5295
-188.359 12.8641
-188.891 12.4422
-189.422 12.7047
-189.954 12.7191
-190.485 12.8422
-191.016 12.7262
-191.548 12.6923
-192.079 12.6602
-192.61 12.8758
-193.142 12.8949
-193.673 12.6625
-194.204 12.7913
-194.736 12.749
-195.267 12.7258
-195.798 12.7575
-196.33 12.6728
-196.861 12.8457
-197.392 12.8217
-197.924 13.1236
-198.455 12.4936
-198.986 12.7687
-199.518 12.6425
-200.049 12.6406
-200.58 12.9265
-201.112 12.8531
-201.643 12.6982
-202.174 12.7148
-202.706 12.546
-203.237 12.7419
-203.768 12.7326
-204.3 12.7972
-204.831 12.9657
-205.362 12.6784
-205.894 12.6383
-206.425 12.6752
-206.956 12.6064
-207.488 12.5604
-208.019 12.5572
-208.55 12.6661
-209.082 12.7133
-209.613 12.6866
-210.144 12.8178
-210.676 12.9758
-211.207 12.9627
-211.738 12.8753
-212.27 12.8902
-212.801 13.144
-213.332 12.4521
-213.864 12.8924
-214.395 12.9965
-214.926 12.8272
-215.458 12.7378
-215.989 12.981
-216.52 12.966
-217.052 12.9178
-217.583 13.0873
-218.114 13.0056
-218.646 13.0601
-219.177 12.9527
-219.709 12.4676
-220.24 12.888
-220.771 12.686
-221.303 12.6833
-221.834 12.6433
-222.365 12.5491
-222.897 12.9574
-223.428 13.0885
-223.959 12.9379
-224.491 12.8661
-225.022 13.0301
-225.553 12.7991
-226.085 12.8361
-226.616 12.5855
-227.147 12.5819
-227.679 12.7846
-228.21 12.9959
-228.741 12.8672
-229.273 13.0319
-229.804 12.8242
-230.335 12.7793
-230.867 12.7513
-231.398 13.1668
-231.929 12.8361
-232.461 13.0591
-232.992 12.5728
-233.523 12.9764
-234.055 12.7462
-234.586 12.9057
-235.117 13.141
-235.649 12.9212
-236.18 12.7654
-236.711 13.062
-237.243 13.0315
-237.774 13.1781
-238.305 13.1051
-238.837 12.7025
-239.368 12.8814
-239.899 13.1169
-240.431 12.9569
-240.962 13.0596
-241.493 12.8528
-242.025 12.965
-242.556 12.8687
-243.087 13.0521
-243.619 13.0213
-244.15 12.9636
-244.681 13.0088
-245.213 13.0181
-245.744 13.0159
-246.275 13.1277
-246.807 13.124
-247.338 13.0731
-247.869 13.0102
-248.401 13.2609
-248.932 12.8057
-249.464 13.198
-249.995 12.9664
-250.526 13.1193
-251.058 13.0627
-251.589 13.1105
-252.12 13.0934
-252.652 13.0775
-253.183 13.0545
-253.714 13.0918
-254.246 13.0517
-254.777 13.476
-255.308 12.9721
-255.84 13.1111
-256.371 13.1608
-256.902 13.0571
-257.434 13.016
-257.965 12.9556
-258.496 12.9483
-259.028 13.1022
-259.559 13.2762
-260.09 12.8258
-260.622 13.1956
-261.153 13.2442
-261.684 13.1444
-262.216 13.0925
-262.747 13.2713
-263.278 13.3744
-263.81 13.2437
-264.341 13.182
-264.872 13.1028
-265.404 13.2356
-265.935 13.1685
-266.466 13.4149
-266.998 13.0819
-267.529 13.3036
-268.06 13.4074
-268.592 13.0298
-269.123 13.368
-269.654 12.9927
-270.186 13.2876
-270.717 13.3958
-271.248 13.3057
-271.78 13.3964
-272.311 13.537
-272.842 13.2997
-273.374 13.2911
-273.905 13.2114
-274.436 13.1872
-274.968 13.0166
-275.499 13.3321
-276.03 13.3022
-276.562 13.2068
-277.093 13.18
-277.624 13.197
-278.156 13.1897
-278.687 13.3507
-279.219 12.9563
-279.75 13.4172
-280.281 13.1452
-280.813 13.0973
-281.344 13.1802
-281.875 13.2943
-282.407 13.3356
-282.938 13.3041
-283.469 13.3108
-284.001 13.3224
-284.532 13.1299
-285.063 13.3681
-285.595 13.3292
-286.126 13.3069
-286.657 13.4417
-287.189 13.2217
-287.72 13.1937
-288.251 13.5593
-288.783 13.5969
-289.314 13.3545
-289.845 13.5204
-290.377 13.2153
-290.908 13.3918
-291.439 13.4264
-291.971 13.5429
-292.502 13.2226
-293.033 13.397
-293.565 13.1749
-294.096 13.4007
-294.627 13.3371
-295.159 13.4936
-295.69 13.1165
-296.221 13.3032
-296.753 13.4545
-297.284 13.4169
-297.815 13.0725
-298.347 13.3805
-298.878 13.2267
-299.409 13.2954
-299.941 13.4704
-300.472 13.3379
-301.003 13.4585
-301.535 13.3331
-302.066 13.4647
-302.597 13.6628
-303.129 13.4277
-303.66 13.5854
-304.191 13.2635
-304.723 13.641
-305.254 13.587
-305.785 13.1908
-306.317 13.0871
-306.848 13.3885
-307.379 13.3105
-307.911 13.3546
-308.442 13.4864
-308.974 13.4243
-309.505 13.6449
-310.036 13.3539
-310.568 13.4574
-311.099 13.521
-311.63 13.5571
-312.162 13.5879
-312.693 13.4362
-313.224 13.429
-313.756 13.2817
-314.287 13.4073
-314.818 13.2087
-315.35 13.252
-315.881 13.564
-316.412 13.1209
-316.944 13.1872
-317.475 13.4585
-318.006 13.4608
-318.538 13.4488
-319.069 13.4229
-319.6 13.5284
-320.132 13.4803
-320.663 13.0387
-321.194 13.452
-321.726 13.4461
-322.257 13.6225
-322.788 13.4406
-323.32 13.4444
-323.851 13.4749
-324.382 13.1726
-324.914 13.4084
-325.445 13.5413
-325.976 13.2453
-326.508 13.3097
-327.039 13.2795
-327.57 13.1657
-328.102 13.4844
-328.633 13.3737
-329.164 13.3058
-329.696 13.5455
-330.227 13.2107
-330.758 13.342
-331.29 13.2675
-331.821 13.2813
-332.352 13.5338
-332.884 13.447
-333.415 13.4239
-333.946 13.4647
-334.478 13.5373
-335.009 13.4486
-335.54 13.4574
-336.072 13.6472
-336.603 13.4777
-337.134 13.4599
-337.666 13.4998
-338.197 13.6102
-338.729 13.7429
-339.26 13.5211
-339.791 13.6387
-340.323 13.3876
-340.854 13.2781
-341.385 13.7176
-341.917 13.5354
-342.448 13.171
-342.979 13.3983
-343.511 13.7359
-344.042 13.6082
-344.573 13.5319
-345.105 14.0197
-345.636 13.5154
-346.167 13.7729
-346.699 13.7073
-347.23 13.4549
-347.761 13.7721
-348.293 13.3981
-348.824 13.6819
-349.355 13.5919
-349.887 13.4915
-350.418 13.3398
-350.949 13.6381
-351.481 13.6868
-352.012 13.2192
-352.543 13.4115
-353.075 13.4322
-353.606 13.4168
-354.137 13.6046
-354.669 13.2691
-355.2 13.4674
-355.731 13.7256
-356.263 13.4286
-356.794 13.5506
-357.325 13.5777
-357.857 13.4676
-358.388 13.3178
-358.919 13.5438
-359.451 13.4084
-359.982 13.5827
-360.513 13.4949
-361.045 13.2329
-361.576 13.4333
-362.107 13.4416
-362.639 13.5739
-363.17 13.3614
-363.701 13.3957
-364.233 13.2892
-364.764 13.5217
-365.295 13.1802
-365.827 13.4923
-366.358 13.5131
-366.889 13.4015
-367.421 13.5396
-367.952 13.6587
-368.484 13.3968
-369.015 13.3682
-369.546 13.2253
-370.078 13.4379
-370.609 13.2016
-371.14 13.0737
-371.672 13.2343
-372.203 13.4513
-372.734 13.5813
-373.266 13.366
-373.797 13.4493
-374.328 13.2856
-374.86 13.4286
-375.391 13.3288
-375.922 13.4792
-376.454 13.2924
-376.985 13.3106
-377.516 13.5882
-378.048 13.4812
-378.579 13.5935
-379.11 13.331
-379.642 13.3645
-380.173 13.4027
-380.704 13.408
-381.236 13.2629
-381.767 13.5406
-382.298 13.4391
-382.83 13.2022
-383.361 13.3141
-383.892 13.1447
-384.424 13.2367
-384.955 13.4645
-385.486 13.4044
-386.018 13.3541
-386.549 13.4691
-387.08 13.3299
-387.612 13.2349
-388.143 13.2153
-388.674 13.1824
-389.206 13.1325
-389.737 13.2995
-390.268 13.3701
-390.8 13.3458
-391.331 13.2825
-391.862 13.2636
-392.394 13.4306
-392.925 13.3629
-393.456 13.1883
-393.988 13.4121
-394.519 13.3881
-395.05 13.1366
-395.582 13.1636
-396.113 13.3122
-396.644 13.1817
-397.176 13.2384
-397.707 13.3205
-398.239 13.2761
-398.77 13.0538
-399.301 13.3199
-399.833 13.2613
-400.364 13.4509
-400.895 13.4082
-401.427 13.275
-401.958 12.7618
-402.489 13.0243
-403.021 12.9954
-403.552 13.2314
-404.083 12.988
-404.615 13.4446
-405.146 12.9819
-405.677 13.1495
-406.209 13.0764
-406.74 13.0757
-407.271 13.2219
-407.803 13.3214
-408.334 13.3369
-408.865 13.1512
-409.397 13.0625
-409.928 13.2098
-410.459 13.0152
-410.991 13.0678
-411.522 13.044
-412.053 13.1472
-412.585 13.2796
-413.116 12.9207
-413.647 12.9933
-414.179 13.0545
-414.71 13.1434
-415.241 12.7813
-415.773 13.0697
-416.304 13.0686
-416.835 12.9626
-417.367 12.9509
-417.898 13.0326
-418.429 13.0791
-418.961 12.9043
-419.492 12.8116
-420.023 12.988
-420.555 12.9757
-421.086 13.2219
-421.617 12.8812
-422.149 12.8754
-422.68 12.8507
-423.211 12.8781
-423.743 13.2565
-424.274 12.7345
-424.805 12.8849
-425.337 12.8785
-425.868 13.1034
-426.399 13.0305
-426.931 12.9149
-427.462 12.8879
-427.994 12.9307
-428.525 12.8544
-429.056 12.8536
-429.588 12.8505
-430.119 12.9364
-430.65 13.0352
-431.182 12.8683
-431.713 13.2345
-432.244 13.0196
-432.776 12.9684
-433.307 12.9695
-433.838 12.8488
-434.37 12.8188
-434.901 12.8071
-435.432 12.8764
-435.964 13.1505
-436.495 12.7983
-437.026 12.7843
-437.558 12.8029
-438.089 13.0388
-438.62 12.8515
-439.152 12.7709
-439.683 12.813
-440.214 13.2349
-440.746 12.7693
-441.277 12.8218
-441.808 12.8028
-442.34 12.6767
-442.871 12.7384
-443.402 12.9874
-443.934 12.7084
-444.465 13.2006
-444.996 12.8141
-445.528 12.8119
-446.059 12.8131
-446.59 12.969
-447.122 12.8311
-447.653 12.8118
-448.184 12.6242
-448.716 12.8274
-449.247 12.7877
-449.778 12.7228
-450.31 12.7064
-450.841 12.7482
-451.372 12.9993
-451.904 12.8439
-452.435 12.7875
-452.966 12.721
-453.498 12.7608
-454.029 12.7678
-454.56 12.553
-455.092 11.8267
-455.623 11.7673
-456.154 11.5651
-456.686 11.867
-457.217 12.0992
-457.749 12.2524
-458.28 12.144
-458.811 12.3975
-459.343 12.2289
-459.874 12.5321
-460.405 12.6133
-460.937 12.9677
-461.468 12.799
-461.999 12.9076
-462.531 12.7918
-463.062 12.9696
-463.593 12.7814
-464.125 13.027
-464.656 12.8803
-465.187 12.8253
-465.719 12.7234
-466.25 12.7918
-466.781 12.9208
-467.313 12.7102
-467.844 12.5709
-468.375 12.6182
-468.907 12.784
-469.438 12.5824
-469.969 12.6722
-470.501 12.8817
-471.032 12.9593
-471.563 12.5733
-472.095 12.616
-472.626 12.4409
-473.157 12.6124
-473.689 12.6318
-474.22 12.428
